Data from Reflection__18__09-30-49-916.txt Node

Date: Fri Mar 07 09:30:49 COT 2025
User: Unisinu
Spectrometer: SR401173
Trigger mode: 0
Integration Time (sec): 1,000000E-1
Scans to average: 5
Electric dark correction enabled: true
Nonlinearity correction enabled: false
Boxcar width: 4
XAxis mode: Wavelengths
Number of Pixels in Spectrum: 3648
>>>>>Begin Spectral Data<<<<<
344,63	223,87
344,852	239,93
345,073	81,58
345,295	109,95
345,516	87,89
345,738	72,41
345,959	115,55
346,18	964,1
346,402	605,61
346,623	551,44
346,844	239,93
347,066	1092,31
347,287	342,74
347,508	130,66
347,73	38,67
347,951	9,07
348,172	14,3
348,394	16,56
348,615	12,57
348,836	14,8
349,057	13,55
349,278	9,5
349,5	7,19
349,721	9,17
349,942	14,35
350,163	13,67
350,384	16,47
350,605	17,64
350,827	17,88
351,048	19,52
351,269	15,8
351,49	13,88
351,711	13,49
351,932	11,08
352,153	11,97
352,374	11,34
352,595	9,29
352,816	7,45
353,037	5,05
353,258	9
353,479	10,07
353,7	7,41
353,92	6,87
354,141	3,22
354,362	1,66
354,583	-2,48
354,804	-2,7
355,025	-3,61
355,246	-3,41
355,466	-2,45
355,687	2,7
355,908	2,77
356,129	7,92
356,35	8,87
356,57	13,03
356,791	16,7
357,012	14,9
357,232	15,62
357,453	12,41
357,674	11,24
357,894	10,26
358,115	9,16
358,336	9,61
358,556	8,47
358,777	6,53
358,997	10,14
359,218	9,12
359,439	13,34
359,659	14,81
359,88	15,12
360,1	12,89
360,321	12,53
360,541	13,49
360,762	11,3
360,982	9,07
361,203	6,83
361,423	4,44
361,643	3,67
361,864	5,42
362,084	6,42
362,304	6,76
362,525	6,5
362,745	7,56
362,966	9,08
363,186	10,64
363,406	9,35
363,626	9,4
363,847	7,85
364,067	8,72
364,287	8,11
364,507	6,25
364,728	7,38
364,948	6,69
365,168	6,8
365,388	8,8
365,608	7,1
365,828	8,78
366,049	8,97
366,269	8,93
366,489	10,68
366,709	9,78
366,929	9,38
367,149	9,35
367,369	9,48
367,589	10,49
367,809	9,47
368,029	8,02
368,249	7,49
368,469	7,22
368,689	6,11
368,909	6,14
369,129	3,21
369,349	1,65
369,569	1,77
369,789	2,05
370,009	2,39
370,228	2,39
370,448	1,52
370,668	2,61
370,888	2,5
371,108	4,9
371,327	5,8
371,547	5,59
371,767	4,87
371,987	5,02
372,206	4,59
372,426	5,54
372,646	3,47
372,866	2,83
373,085	1,62
373,305	1,35
373,525	1,71
373,744	2,22
373,964	1,67
374,183	3,39
374,403	4,19
374,623	4,93
374,842	5,68
375,062	7,03
375,281	6,49
375,501	5,99
375,72	5,57
375,94	5,27
376,159	5,02
376,379	3,92
376,598	4,23
376,818	4,1
377,037	2,8
377,256	2,85
377,476	2,95
377,695	3,06
377,914	2,9
378,134	1,94
378,353	2,38
378,572	2,04
378,792	2,64
379,011	3,24
379,23	3,89
379,45	3,57
379,669	4,06
379,888	4,65
380,107	4,97
380,327	4,9
380,546	5,32
380,765	4,15
380,984	4,04
381,203	3,02
381,422	3
381,641	1,93
381,861	2,37
382,08	2,91
382,299	3,16
382,518	3,08
382,737	2,09
382,956	1,66
383,175	1,53
383,394	1,97
383,613	2,09
383,832	1,92
384,051	1,55
384,27	0,92
384,489	0,85
384,708	1,27
384,927	1,74
385,145	1,86
385,364	1,22
385,583	1,21
385,802	1,08
386,021	1,26
386,24	1,65
386,458	1,74
386,677	1,92
386,896	1,64
387,115	1,54
387,334	1,78
387,552	2,15
387,771	2,39
387,99	2,22
388,208	2,26
388,427	2,14
388,646	2,19
388,864	2,27
389,083	2,3
389,302	2,57
389,52	2,37
389,739	2,03
389,957	2,04
390,176	1,58
390,394	1,58
390,613	1,23
390,832	1,24
391,05	1,19
391,269	1,14
391,487	0,75
391,705	1,06
391,924	1,35
392,142	1,8
392,361	1,77
392,579	2,24
392,798	2,27
393,016	2,28
393,234	1,99
393,453	2,24
393,671	2,26
393,889	2,16
394,108	2,33
394,326	2,32
394,544	2,14
394,762	2,03
394,981	2,03
395,199	1,79
395,417	1,86
395,635	1,75
395,854	1,78
396,072	1,8
396,29	1,72
396,508	1,76
396,726	1,75
396,944	1,74
397,162	1,94
397,38	1,73
397,598	1,75
397,817	1,77
398,035	1,58
398,253	1,65
398,471	1,45
398,689	1,5
398,907	1,54
399,125	1,41
399,343	1,44
399,561	1,55
399,778	1,5
399,996	1,59
400,214	1,6
400,432	1,77
400,65	1,69
400,868	1,62
401,086	1,68
401,304	1,83
401,521	1,68
401,739	1,72
401,957	1,71
402,175	1,67
402,392	1,66
402,61	1,7
402,828	1,76
403,046	1,77
403,263	1,64
403,481	1,72
403,699	1,75
403,916	1,71
404,134	1,78
404,352	1,69
404,569	1,71
404,787	1,66
405,004	1,68
405,222	1,76
405,44	1,75
405,657	1,63
405,875	1,72
406,092	1,76
406,31	1,87
406,527	1,9
406,745	1,84
406,962	1,78
407,18	1,71
407,397	1,75
407,614	1,78
407,832	1,75
408,049	1,68
408,267	1,6
408,484	1,54
408,701	1,67
408,919	1,67
409,136	1,74
409,353	1,67
409,57	1,73
409,788	1,77
410,005	1,74
410,222	1,71
410,439	1,74
410,657	1,73
410,874	1,8
411,091	1,75
411,308	1,81
411,525	1,76
411,742	1,74
411,96	1,8
412,177	1,82
412,394	1,83
412,611	1,76
412,828	1,8
413,045	1,77
413,262	1,75
413,479	1,78
413,696	1,78
413,913	1,7
414,13	1,66
414,347	1,7
414,564	1,73
414,781	1,62
414,998	1,7
415,215	1,73
415,432	1,73
415,648	1,82
415,865	1,99
416,082	2,03
416,299	2,04
416,516	2,05
416,733	2,11
416,949	2,05
417,166	1,95
417,383	1,96
417,6	1,83
417,816	1,76
418,033	1,81
418,25	1,88
418,467	1,9
418,683	1,82
418,9	1,89
419,117	1,96
419,333	1,95
419,55	1,95
419,766	1,97
419,983	1,98
420,2	1,91
420,416	1,92
420,633	2,01
420,849	2,05
421,066	2,05
421,282	2
421,499	2,1
421,715	2,1
421,932	2,08
422,148	2,09
422,365	2,07
422,581	2,05
422,797	2,02
423,014	2,03
423,23	2,09
423,446	2,08
423,663	2,06
423,879	2,12
424,095	2,04
424,312	2,06
424,528	2,09
424,744	2,06
424,961	2,16
425,177	2,16
425,393	2,21
425,609	2,31
425,825	2,25
426,042	2,38
426,258	2,38
426,474	2,32
426,69	2,45
426,906	2,35
427,122	2,38
427,338	2,29
427,554	2,22
427,771	2,31
427,987	2,12
428,203	2,24
428,419	2,25
428,635	2,21
428,851	2,34
429,067	2,37
429,283	2,45
429,499	2,45
429,714	2,43
429,93	2,61
430,146	2,45
430,362	2,47
430,578	2,46
430,794	2,35
431,01	2,33
431,226	2,31
431,441	2,34
431,657	2,33
431,873	2,29
432,089	2,35
432,305	2,32
432,52	2,26
432,736	2,25
432,952	2,2
433,167	2,23
433,383	2,22
433,599	2,19
433,814	2,15
434,03	2,13
434,246	2,17
434,461	2,23
434,677	2,24
434,893	2,27
435,108	2,23
435,324	2,27
435,539	2,25
435,755	2,26
435,97	2,3
436,186	2,32
436,401	2,32
436,617	2,29
436,832	2,26
437,048	2,24
437,263	2,18
437,478	2,24
437,694	2,24
437,909	2,28
438,125	2,28
438,34	2,21
438,555	2,27
438,771	2,3
438,986	2,37
439,201	2,36
439,417	2,32
439,632	2,35
439,847	2,31
440,062	2,25
440,278	2,34
440,493	2,36
440,708	2,39
440,923	2,32
441,138	2,35
441,353	2,43
441,569	2,44
441,784	2,47
441,999	2,54
442,214	2,53
442,429	2,47
442,644	2,49
442,859	2,6
443,074	2,66
443,289	2,64
443,504	2,65
443,719	2,64
443,934	2,58
444,149	2,59
444,364	2,61
444,579	2,65
444,794	2,63
445,009	2,6
445,224	2,61
445,438	2,57
445,653	2,63
445,868	2,64
446,083	2,64
446,298	2,61
446,513	2,62
446,727	2,61
446,942	2,59
447,157	2,62
447,372	2,7
447,586	2,71
447,801	2,72
448,016	2,77
448,23	2,84
448,445	2,78
448,66	2,78
448,874	2,87
449,089	2,84
449,304	2,87
449,518	2,87
449,733	2,9
449,947	2,9
450,162	2,89
450,376	2,93
450,591	2,95
450,805	2,88
451,02	2,87
451,234	2,85
451,449	2,82
451,663	2,88
451,878	2,89
452,092	2,96
452,307	2,97
452,521	2,99
452,735	3,04
452,95	3,13
453,164	3,12
453,378	3,19
453,593	3,14
453,807	3,12
454,021	3,12
454,236	3,19
454,45	3,18
454,664	3,18
454,878	3,15
455,093	3,21
455,307	3,15
455,521	3,21
455,735	3,22
455,949	3,2
456,163	3,11
456,377	3,13
456,592	3,11
456,806	3,09
457,02	3,04
457,234	3,05
457,448	2,98
457,662	2,99
457,876	2,98
458,09	2,98
458,304	2,99
458,518	2,96
458,732	3,03
458,946	3,05
459,16	3,13
459,374	3,21
459,588	3,19
459,801	3,27
460,015	3,29
460,229	3,23
460,443	3,28
460,657	3,26
460,871	3,22
461,085	3,16
461,298	3,15
461,512	3,14
461,726	3,06
461,94	3,11
462,153	3,11
462,367	3,11
462,581	3,12
462,794	3,16
463,008	3,19
463,222	3,19
463,435	3,21
463,649	3,26
463,863	3,27
464,076	3,28
464,29	3,27
464,503	3,27
464,717	3,25
464,93	3,3
465,144	3,31
465,357	3,33
465,571	3,33
465,784	3,32
465,998	3,39
466,211	3,44
466,425	3,43
466,638	3,4
466,852	3,37
467,065	3,36
467,278	3,36
467,492	3,39
467,705	3,36
467,918	3,33
468,132	3,26
468,345	3,31
468,558	3,4
468,772	3,42
468,985	3,46
469,198	3,45
469,411	3,46
469,624	3,52
469,838	3,59
470,051	3,61
470,264	3,62
470,477	3,66
470,69	3,66
470,903	3,63
471,117	3,67
471,33	3,71
471,543	3,69
471,756	3,7
471,969	3,73
472,182	3,74
472,395	3,72
472,608	3,72
472,821	3,78
473,034	3,79
473,247	3,75
473,46	3,78
473,673	3,77
473,886	3,83
474,098	3,83
474,311	3,83
474,524	3,87
474,737	3,9
474,95	3,9
475,163	3,91
475,376	3,94
475,588	3,94
475,801	3,94
476,014	3,97
476,227	3,97
476,439	3,96
476,652	3,97
476,865	3,99
477,078	4,03
477,29	4,03
477,503	4
477,716	4,02
477,928	4,06
478,141	4,11
478,353	4,1
478,566	4,13
478,779	4,12
478,991	4,12
479,204	4,15
479,416	4,23
479,629	4,21
479,841	4,26
480,054	4,19
480,266	4,27
480,479	4,25
480,691	4,27
480,904	4,28
481,116	4,28
481,328	4,27
481,541	4,31
481,753	4,28
481,965	4,35
482,178	4,31
482,39	4,34
482,602	4,39
482,815	4,42
483,027	4,41
483,239	4,43
483,451	4,4
483,664	4,4
483,876	4,39
484,088	4,42
484,3	4,43
484,513	4,38
484,725	4,35
484,937	4,38
485,149	4,41
485,361	4,46
485,573	4,49
485,785	4,5
485,997	4,5
486,209	4,53
486,421	4,58
486,633	4,63
486,845	4,64
487,057	4,62
487,269	4,63
487,481	4,65
487,693	4,69
487,905	4,74
488,117	4,74
488,329	4,78
488,541	4,79
488,753	4,83
488,965	4,87
489,177	4,87
489,388	4,9
489,6	4,92
489,812	4,88
490,024	4,91
490,236	4,93
490,447	4,94
490,659	4,97
490,871	5
491,083	5,01
491,294	5,03
491,506	5
491,718	5,07
491,929	5,07
492,141	5,1
492,353	5,11
492,564	5,15
492,776	5,15
492,987	5,18
493,199	5,18
493,41	5,22
493,622	5,22
493,834	5,26
494,045	5,24
494,257	5,27
494,468	5,28
494,679	5,31
494,891	5,31
495,102	5,32
495,314	5,35
495,525	5,38
495,737	5,37
495,948	5,4
496,159	5,4
496,371	5,42
496,582	5,42
496,793	5,46
497,005	5,46
497,216	5,47
497,427	5,48
497,638	5,49
497,85	5,5
498,061	5,53
498,272	5,55
498,483	5,58
498,694	5,59
498,906	5,61
499,117	5,56
499,328	5,58
499,539	5,57
499,75	5,62
499,961	5,67
500,172	5,69
500,383	5,67
500,594	5,72
500,805	5,76
501,016	5,84
501,227	5,81
501,438	5,86
501,649	5,86
501,86	5,85
502,071	5,83
502,282	5,92
502,493	5,92
502,704	5,97
502,915	5,98
503,126	6,09
503,337	6,12
503,547	6,19
503,758	6,25
503,969	6,33
504,18	6,34
504,391	6,4
504,601	6,42
504,812	6,47
505,023	6,48
505,234	6,5
505,444	6,49
505,655	6,52
505,866	6,51
506,076	6,56
506,287	6,55
506,497	6,62
506,708	6,67
506,919	6,72
507,129	6,76
507,34	6,81
507,55	6,81
507,761	6,87
507,971	6,86
508,182	6,96
508,392	6,96
508,603	6,97
508,813	6,99
509,024	7,06
509,234	7,09
509,445	7,16
509,655	7,2
509,865	7,29
510,076	7,26
510,286	7,34
510,497	7,36
510,707	7,4
510,917	7,44
511,127	7,48
511,338	7,47
511,548	7,49
511,758	7,52
511,968	7,57
512,179	7,58
512,389	7,66
512,599	7,7
512,809	7,75
513,019	7,79
513,23	7,91
513,44	7,95
513,65	8,03
513,86	8,08
514,07	8,11
514,28	8,11
514,49	8,11
514,7	8,08
514,91	8,11
515,12	8,06
515,33	8,1
515,54	8,1
515,75	8,13
515,96	8,18
516,17	8,28
516,38	8,4
516,59	8,51
516,8	8,55
517,01	8,68
517,22	8,74
517,429	8,82
517,639	8,88
517,849	8,97
518,059	9,01
518,269	9,08
518,478	9,16
518,688	9,28
518,898	9,33
519,108	9,44
519,317	9,48
519,527	9,58
519,737	9,62
519,946	9,7
520,156	9,72
520,366	9,79
520,575	9,82
520,785	9,86
520,994	9,89
521,204	10,02
521,414	10,07
521,623	10,17
521,833	10,21
522,042	10,27
522,252	10,29
522,461	10,39
522,671	10,47
522,88	10,56
523,089	10,55
523,299	10,61
523,508	10,63
523,718	10,72
523,927	10,78
524,136	10,8
524,346	10,79
524,555	10,8
524,764	10,81
524,974	10,86
525,183	10,88
525,392	10,97
525,602	10,99
525,811	11,03
526,02	11,11
526,229	11,23
526,438	11,33
526,648	11,43
526,857	11,5
527,066	11,56
527,275	11,58
527,484	11,64
527,693	11,71
527,902	11,78
528,112	11,81
528,321	11,86
528,53	11,9
528,739	11,93
528,948	11,99
529,157	12,07
529,366	12,09
529,575	12,14
529,784	12,12
529,993	12,13
530,201	12,14
530,41	12,16
530,619	12,19
530,828	12,25
531,037	12,28
531,246	12,36
531,455	12,35
531,664	12,46
531,872	12,48
532,081	12,56
532,29	12,6
532,499	12,67
532,707	12,7
532,916	12,76
533,125	12,75
533,334	12,82
533,542	12,81
533,751	12,86
533,96	12,86
534,168	12,91
534,377	12,91
534,585	12,89
534,794	12,86
535,003	12,92
535,211	12,95
535,42	13,02
535,628	13,06
535,837	13,1
536,045	13,07
536,254	13,07
536,462	13,09
536,671	13,13
536,879	13,11
537,088	13,1
537,296	13,1
537,504	13,09
537,713	13,04
537,921	13,06
538,129	13,11
538,338	13,13
538,546	13,12
538,754	13,16
538,963	13,19
539,171	13,23
539,379	13,28
539,587	13,32
539,796	13,37
540,004	13,32
540,212	13,34
540,42	13,39
540,628	13,37
540,837	13,41
541,045	13,42
541,253	13,42
541,461	13,45
541,669	13,48
541,877	13,55
542,085	13,58
542,293	13,57
542,501	13,66
542,709	13,67
542,917	13,66
543,125	13,68
543,333	13,73
543,541	13,71
543,749	13,74
543,957	13,76
544,165	13,8
544,373	13,77
544,581	13,78
544,789	13,77
544,997	13,8
545,204	13,78
545,412	13,84
545,62	13,82
545,828	13,87
546,036	13,86
546,243	13,91
546,451	13,93
546,659	13,98
546,867	13,99
547,074	14,03
547,282	14,05
547,49	14,11
547,697	14,06
547,905	14,09
548,112	14,06
548,32	14,1
548,528	14,11
548,735	14,17
548,943	14,13
549,15	14,15
549,358	14,18
549,565	14,26
549,773	14,28
549,98	14,32
550,188	14,29
550,395	14,29
550,603	14,23
550,81	14,32
551,018	14,28
551,225	14,27
551,432	14,22
551,64	14,25
551,847	14,29
552,054	14,34
552,262	14,39
552,469	14,46
552,676	14,41
552,884	14,49
553,091	14,5
553,298	14,54
553,505	14,55
553,713	14,53
553,92	14,47
554,127	14,49
554,334	14,45
554,541	14,49
554,748	14,46
554,955	14,42
555,163	14,4
555,37	14,41
555,577	14,36
555,784	14,4
555,991	14,35
556,198	14,4
556,405	14,38
556,612	14,38
556,819	14,37
557,026	14,36
557,233	14,32
557,44	14,37
557,647	14,33
557,854	14,36
558,06	14,3
558,267	14,34
558,474	14,31
558,681	14,32
558,888	14,34
559,095	14,34
559,301	14,32
559,508	14,31
559,715	14,28
559,922	14,33
560,129	14,29
560,335	14,31
560,542	14,25
560,749	14,31
560,955	14,29
561,162	14,31
561,369	14,32
561,575	14,35
561,782	14,32
561,988	14,3
562,195	14,25
562,402	14,3
562,608	14,21
562,815	14,22
563,021	14,18
563,228	14,19
563,434	14,12
563,641	14,08
563,847	14,06
564,054	14,02
564,26	13,98
564,467	13,95
564,673	13,9
564,879	13,88
565,086	13,82
565,292	13,82
565,498	13,75
565,705	13,79
565,911	13,77
566,117	13,73
566,324	13,68
566,53	13,7
566,736	13,67
566,942	13,61
567,149	13,56
567,355	13,56
567,561	13,5
567,767	13,51
567,973	13,49
568,179	13,51
568,386	13,43
568,592	13,44
568,798	13,44
569,004	13,43
569,21	13,41
569,416	13,38
569,622	13,34
569,828	13,33
570,034	13,27
570,24	13,3
570,446	13,26
570,652	13,24
570,858	13,21
571,064	13,22
571,27	13,23
571,476	13,24
571,681	13,23
571,887	13,26
572,093	13,18
572,299	13,15
572,505	13,11
572,711	13,11
572,916	13,05
573,122	13,04
573,328	12,98
573,534	12,96
573,739	12,9
573,945	12,91
574,151	12,89
574,357	12,91
574,562	12,89
574,768	12,85
574,973	12,8
575,179	12,83
575,385	12,78
575,59	12,76
575,796	12,73
576,001	12,78
576,207	12,76
576,413	12,76
576,618	12,76
576,824	12,75
577,029	12,68
577,234	12,72
577,44	12,74
577,645	12,77
577,851	12,7
578,056	12,67
578,262	12,64
578,467	12,67
578,672	12,7
578,878	12,74
579,083	12,7
579,288	12,7
579,494	12,66
579,699	12,73
579,904	12,74
580,109	12,71
580,315	12,69
580,52	12,66
580,725	12,6
580,93	12,62
581,135	12,56
581,341	12,59
581,546	12,53
581,751	12,52
581,956	12,52
582,161	12,54
582,366	12,52
582,571	12,53
582,776	12,48
582,981	12,47
583,186	12,42
583,391	12,41
583,596	12,37
583,801	12,39
584,006	12,32
584,211	12,32
584,416	12,29
584,621	12,32
584,826	12,35
585,031	12,37
585,236	12,31
585,441	12,31
585,645	12,25
585,85	12,22
586,055	12,17
586,26	12,12
586,465	11,96
586,669	11,86
586,874	11,78
587,079	11,73
587,283	11,67
587,488	11,68
587,693	11,68
587,898	11,69
588,102	11,72
588,307	11,86
588,511	11,94
588,716	11,99
588,921	12,02
589,125	12,07
589,33	12,08
589,534	12,1
589,739	12,11
589,943	12,12
590,148	12,11
590,352	12,04
590,557	12,01
590,761	12,06
590,966	12,08
591,17	12,1
591,374	12,06
591,579	12,06
591,783	12,04
591,988	12,07
592,192	12,08
592,396	12,1
592,601	12,05
592,805	12,02
593,009	11,99
593,213	12,06
593,418	12,02
593,622	12,05
593,826	12,07
594,03	12,15
594,234	12,16
594,439	12,21
594,643	12,21
594,847	12,28
595,051	12,28
595,255	12,36
595,459	12,34
595,663	12,35
595,867	12,35
596,071	12,37
596,275	12,38
596,48	12,38
596,684	12,32
596,888	12,34
597,091	12,29
597,295	12,35
597,499	12,32
597,703	12,29
597,907	12,27
598,111	12,3
598,315	12,3
598,519	12,38
598,723	12,33
598,926	12,36
599,13	12,32
599,334	12,32
599,538	12,31
599,742	12,3
599,945	12,25
600,149	12,36
600,353	12,32
600,557	12,36
600,76	12,37
600,964	12,43
601,168	12,43
601,371	12,44
601,575	12,47
601,778	12,54
601,982	12,46
602,186	12,48
602,389	12,46
602,593	12,47
602,796	12,4
603	12,43
603,203	12,42
603,407	12,46
603,61	12,39
603,814	12,4
604,017	12,39
604,221	12,44
604,424	12,37
604,627	12,42
604,831	12,42
605,034	12,41
605,238	12,37
605,441	12,39
605,644	12,35
605,847	12,34
606,051	12,3
606,254	12,36
606,457	12,32
606,661	12,31
606,864	12,3
607,067	12,31
607,27	12,26
607,473	12,27
607,677	12,22
607,88	12,2
608,083	12,17
608,286	12,21
608,489	12,17
608,692	12,2
608,895	12,21
609,098	12,27
609,301	12,22
609,504	12,27
609,707	12,25
609,91	12,26
610,113	12,21
610,316	12,2
610,519	12,14
610,722	12,13
610,925	12,08
611,128	12,06
611,331	12,01
611,534	12,03
611,736	11,99
611,939	11,98
612,142	11,97
612,345	11,95
612,548	11,93
612,75	11,94
612,953	11,92
613,156	11,92
613,359	11,87
613,561	11,86
613,764	11,89
613,967	11,92
614,169	11,93
614,372	11,94
614,575	11,91
614,777	11,93
614,98	11,93
615,183	11,98
615,385	11,96
615,588	11,95
615,79	11,91
615,993	11,95
616,195	11,89
616,398	11,87
616,6	11,85
616,803	11,93
617,005	11,86
617,208	11,92
617,41	11,89
617,612	11,9
617,815	11,87
618,017	11,93
618,219	11,97
618,422	12,01
618,624	11,96
618,826	12
619,029	11,96
619,231	11,97
619,433	11,93
619,635	11,93
619,838	11,87
620,04	11,85
620,242	11,82
620,444	11,8
620,646	11,74
620,849	11,73
621,051	11,67
621,253	11,72
621,455	11,7
621,657	11,73
621,859	11,73
622,061	11,77
622,263	11,72
622,465	11,79
622,667	11,79
622,869	11,84
623,071	11,83
623,273	11,83
623,475	11,82
623,677	11,88
623,879	11,84
624,081	11,88
624,283	11,78
624,485	11,8
624,686	11,74
624,888	11,76
625,09	11,72
625,292	11,75
625,494	11,66
625,695	11,69
625,897	11,65
626,099	11,78
626,301	11,76
626,502	11,88
626,704	11,89
626,906	11,94
627,107	11,97
627,309	12,04
627,511	12,01
627,712	12,02
627,914	11,99
628,116	11,98
628,317	11,9
628,519	11,9
628,72	11,84
628,922	11,86
629,123	11,8
629,325	11,84
629,526	11,85
629,728	11,82
629,929	11,84
630,131	11,87
630,332	11,86
630,533	11,95
630,735	11,86
630,936	11,91
631,137	11,86
631,339	11,92
631,54	11,96
631,741	11,96
631,943	11,95
632,144	12,01
632,345	11,97
632,546	12
632,748	12,02
632,949	12,11
633,15	12,04
633,351	12,03
633,552	11,99
633,754	12,02
633,955	11,97
634,156	12,01
634,357	11,98
634,558	11,98
634,759	11,91
634,96	11,95
635,161	11,93
635,362	11,97
635,563	11,93
635,764	11,94
635,965	11,85
636,166	11,88
636,367	11,86
636,568	11,88
636,769	11,8
636,97	11,84
637,171	11,83
637,371	11,84
637,572	11,82
637,773	11,85
637,974	11,81
638,175	11,79
638,376	11,77
638,576	11,8
638,777	11,72
638,978	11,7
639,179	11,62
639,379	11,63
639,58	11,59
639,781	11,62
639,981	11,54
640,182	11,57
640,383	11,5
640,583	11,57
640,784	11,52
640,984	11,59
641,185	11,53
641,385	11,56
641,586	11,49
641,786	11,54
641,987	11,46
642,187	11,56
642,388	11,5
642,588	11,56
642,789	11,53
642,989	11,55
643,19	11,49
643,39	11,51
643,59	11,45
643,791	11,46
643,991	11,37
644,191	11,29
644,392	11,23
644,592	11,17
644,792	11,05
644,993	11,04
645,193	11,01
645,393	11,05
645,593	10,96
645,793	11,02
645,994	11,03
646,194	11,05
646,394	11,03
646,594	11,06
646,794	11,07
646,994	11,03
647,194	10,98
647,395	11,01
647,595	10,9
647,795	10,91
647,995	10,85
648,195	10,94
648,395	11,02
648,595	11,05
648,795	10,99
648,995	10,98
649,194	10,94
649,394	10,96
649,594	10,91
649,794	10,96
649,994	10,91
650,194	10,87
650,394	10,83
650,594	10,88
650,793	10,94
650,993	11,02
651,193	11,02
651,393	11,11
651,592	11,07
651,792	11,05
651,992	10,97
652,192	10,99
652,391	10,99
652,591	10,99
652,791	10,9
652,99	10,88
653,19	10,8
653,389	10,75
653,589	10,68
653,789	10,62
653,988	10,6
654,188	10,53
654,387	10,42
654,587	10,45
654,786	10,47
654,986	10,53
655,185	10,54
655,385	10,57
655,584	10,65
655,783	10,69
655,983	10,76
656,182	10,82
656,382	10,8
656,581	10,87
656,78	10,79
656,979	10,85
657,179	10,9
657,378	10,95
657,577	10,88
657,777	10,9
657,976	10,85
658,175	10,86
658,374	10,8
658,573	10,82
658,773	10,81
658,972	10,79
659,171	10,73
659,37	10,81
659,569	10,79
659,768	10,85
659,967	10,85
660,166	10,83
660,365	10,81
660,564	10,78
660,763	10,77
660,962	10,84
661,161	10,74
661,36	10,77
661,559	10,74
661,758	10,73
661,957	10,72
662,156	10,75
662,355	10,72
662,554	10,75
662,753	10,73
662,952	10,76
663,15	10,77
663,349	10,73
663,548	10,73
663,747	10,7
663,946	10,66
664,144	10,64
664,343	10,55
664,542	10,54
664,74	10,51
664,939	10,42
665,138	10,39
665,336	10,37
665,535	10,4
665,734	10,49
665,932	10,56
666,131	10,6
666,329	10,49
666,528	10,51
666,726	10,56
666,925	10,57
667,124	10,58
667,322	10,56
667,52	10,51
667,719	10,44
667,917	10,44
668,116	10,53
668,314	10,44
668,513	10,42
668,711	10,43
668,909	10,45
669,108	10,47
669,306	10,42
669,504	10,41
669,703	10,42
669,901	10,35
670,099	10,47
670,297	10,48
670,496	10,58
670,694	10,59
670,892	10,59
671,09	10,64
671,288	10,73
671,487	10,75
671,685	10,79
671,883	10,79
672,081	10,76
672,279	10,67
672,477	10,63
672,675	10,59
672,873	10,57
673,071	10,51
673,269	10,52
673,467	10,53
673,665	10,45
673,863	10,47
674,061	10,47
674,259	10,5
674,457	10,62
674,655	10,67
674,853	10,74
675,051	10,71
675,249	10,72
675,446	10,82
675,644	10,83
675,842	10,79
676,04	10,77
676,238	10,71
676,435	10,64
676,633	10,53
676,831	10,49
677,028	10,41
677,226	10,4
677,424	10,37
677,621	10,44
677,819	10,41
678,017	10,44
678,214	10,47
678,412	10,57
678,61	10,61
678,807	10,68
679,005	10,65
679,202	10,74
679,4	10,72
679,597	10,76
679,795	10,75
679,992	10,78
680,19	10,78
680,387	10,78
680,584	10,83
680,782	10,94
680,979	10,88
681,177	10,87
681,374	10,89
681,571	10,87
681,769	10,87
681,966	10,89
682,163	10,95
682,361	10,96
682,558	10,96
682,755	11,03
682,952	11,06
683,149	11,12
683,347	11,14
683,544	11,24
683,741	11,22
683,938	11,23
684,135	11,23
684,332	11,19
684,53	11,15
684,727	11,16
684,924	11,09
685,121	11,14
685,318	11,12
685,515	11,18
685,712	11,14
685,909	11,14
686,106	11,12
686,303	11,2
686,5	11,21
686,697	11,32
686,893	11,33
687,09	11,29
687,287	11,3
687,484	11,47
687,681	11,5
687,878	11,62
688,075	11,66
688,271	11,77
688,468	11,85
688,665	12,02
688,862	12,14
689,058	12,23
689,255	12,27
689,452	12,41
689,648	12,5
689,845	12,67
690,042	12,75
690,238	12,85
690,435	12,85
690,632	12,92
690,828	13,05
691,025	13,15
691,221	13,17
691,418	13,23
691,614	13,18
691,811	13,3
692,007	13,34
692,204	13,48
692,4	13,49
692,597	13,68
692,793	13,8
692,99	14
693,186	14,08
693,382	14,45
693,579	14,58
693,775	14,78
693,971	14,89
694,168	15,26
694,364	15,33
694,56	15,58
694,757	15,68
694,953	15,98
695,149	15,9
695,345	16,1
695,542	16,24
695,738	16,41
695,934	16,42
696,13	16,53
696,326	16,59
696,522	16,69
696,718	16,64
696,914	16,79
697,111	16,87
697,307	17,05
697,503	17,27
697,699	17,39
697,895	17,55
698,091	17,7
698,287	17,86
698,483	18,11
698,679	18,31
698,874	18,43
699,07	18,52
699,266	18,6
699,462	18,76
699,658	18,92
699,854	18,98
700,05	19,17
700,246	19,26
700,441	19,43
700,637	19,65
700,833	19,89
701,029	20,01
701,224	20,23
701,42	20,32
701,616	20,59
701,811	20,74
702,007	20,96
702,203	21,05
702,398	21,24
702,594	21,35
702,79	21,59
702,985	21,68
703,181	21,91
703,376	21,97
703,572	22,23
703,767	22,38
703,963	22,64
704,158	22,75
704,354	22,98
704,549	23,07
704,745	23,26
704,94	23,41
705,136	23,68
705,331	23,74
705,526	23,89
705,722	24,15
705,917	24,33
706,112	24,33
706,308	24,56
706,503	24,78
706,698	24,96
706,894	25,15
707,089	25,37
707,284	25,61
707,479	25,78
707,675	25,91
707,87	26,15
708,065	26,26
708,26	26,36
708,455	26,55
708,65	26,7
708,845	26,79
709,04	26,93
709,236	26,98
709,431	27,24
709,626	27,44
709,821	27,62
710,016	27,86
710,211	28,06
710,406	28,23
710,601	28,5
710,796	28,69
710,99	28,97
711,185	29,02
711,38	29,22
711,575	29,33
711,77	29,51
711,965	29,64
712,16	29,67
712,355	29,74
712,549	29,88
712,744	29,92
712,939	30,22
713,134	30,29
713,328	30,51
713,523	30,51
713,718	30,49
713,912	30,56
714,107	30,56
714,302	30,37
714,496	30,34
714,691	30,03
714,886	29,95
715,08	29,78
715,275	29,67
715,469	29,62
715,664	29,66
715,858	29,61
716,053	29,8
716,247	29,79
716,442	30,02
716,636	29,99
716,831	30,1
717,025	30,31
717,22	30,42
717,414	30,47
717,608	30,7
717,803	30,88
717,997	31,15
718,191	31,41
718,386	31,95
718,58	32,51
718,774	32,99
718,969	33,28
719,163	33,72
719,357	34,07
719,551	34,4
719,745	34,75
719,94	35,01
720,134	35,17
720,328	35,21
720,522	35,23
720,716	35,37
720,91	35,39
721,104	35,47
721,298	35,52
721,492	35,4
721,687	35,36
721,881	35,33
722,075	35,28
722,269	35,5
722,462	35,52
722,656	35,79
722,85	35,88
723,044	36,01
723,238	36,08
723,432	36,22
723,626	36,41
723,82	36,67
724,014	36,63
724,207	36,88
724,401	36,9
724,595	37,22
724,789	37,39
724,983	37,58
725,176	37,67
725,37	37,71
725,564	37,84
725,757	38,24
725,951	38,38
726,145	38,61
726,338	38,6
726,532	38,56
726,726	38,59
726,919	38,8
727,113	39,05
727,306	39,42
727,5	39,51
727,694	39,71
727,887	39,67
728,081	39,95
728,274	40,14
728,467	40,44
728,661	40,66
728,854	40,83
729,048	40,76
729,241	40,8
729,435	41,18
729,628	41,59
729,821	41,8
730,015	42,19
730,208	42,46
730,401	42,67
730,595	42,86
730,788	43,27
730,981	43,6
731,174	43,7
731,368	43,91
731,561	44,05
731,754	44,22
731,947	44,36
732,14	44,6
732,333	44,78
732,527	44,75
732,72	44,81
732,913	44,9
733,106	45,1
733,299	45,19
733,492	45,38
733,685	45,51
733,878	45,62
734,071	45,8
734,264	45,97
734,457	45,99
734,65	46,18
734,843	46,15
735,036	46,33
735,229	46,46
735,421	46,69
735,614	46,78
735,807	46,85
736	46,91
736,193	47,19
736,386	47,27
736,578	47,53
736,771	47,7
736,964	47,74
737,157	47,71
737,349	47,72
737,542	47,77
737,735	47,87
737,927	47,92
738,12	48,01
738,313	47,98
738,505	47,93
738,698	48,04
738,89	48,2
739,083	48,4
739,276	48,46
739,468	48,59
739,661	48,75
739,853	48,89
740,046	49,03
740,238	49,19
740,431	49,22
740,623	49,29
740,815	49,37
741,008	49,56
741,2	49,78
741,393	49,84
741,585	49,96
741,777	49,96
741,97	50,13
742,162	50,24
742,354	50,33
742,546	50,38
742,739	50,43
742,931	50,43
743,123	50,55
743,315	50,6
743,508	50,73
743,7	50,75
743,892	50,76
744,084	50,87
744,276	50,97
744,468	51,02
744,66	51,1
744,852	51,14
745,044	51,22
745,237	51,24
745,429	51,27
745,621	51,4
745,813	51,41
746,005	51,41
746,197	51,49
746,388	51,46
746,58	51,5
746,772	51,46
746,964	51,57
747,156	51,57
747,348	51,62
747,54	51,62
747,732	51,68
747,923	51,69
748,115	51,77
748,307	51,62
748,499	51,61
748,691	51,49
748,882	51,64
749,074	51,56
749,266	51,58
749,457	51,67
749,649	51,74
749,841	51,8
750,032	52,06
750,224	52,13
750,416	52,35
750,607	52,32
750,799	52,47
750,99	52,6
751,182	52,57
751,373	52,47
751,565	52,57
751,756	52,46
751,948	52,5
752,139	52,5
752,331	52,57
752,522	52,62
752,713	52,59
752,905	52,71
753,096	52,76
753,288	52,64
753,479	52,65
753,67	52,59
753,862	52,61
754,053	52,61
754,244	52,71
754,435	52,72
754,627	52,71
754,818	52,7
755,009	52,88
755,2	52,97
755,391	53,11
755,583	53,06
755,774	53,1
755,965	53,03
756,156	53,06
756,347	53,03
756,538	53,15
756,729	53,04
756,92	52,88
757,111	52,55
757,302	52,36
757,493	52,19
757,684	51,95
757,875	51,67
758,066	51,55
758,257	51,01
758,448	50,41
758,639	49,91
758,83	50,74
759,021	51,68
759,211	51,58
759,402	51,63
759,593	51,6
759,784	50,71
759,975	50,57
760,165	50,43
760,356	50,44
760,547	50,28
760,738	50,15
760,928	49,91
761,119	49,86
761,31	49,66
761,5	49,78
761,691	49,84
761,882	50,07
762,072	50,19
762,263	50,58
762,453	50,49
762,644	50,73
762,834	50,6
763,025	51,01
763,215	51,27
763,406	51,45
763,596	51,68
763,787	52,07
763,977	52,06
764,168	52,3
764,358	52,48
764,548	52,83
764,739	52,85
764,929	53,22
765,119	53,17
765,31	53,12
765,5	53,08
765,69	53,26
765,881	53,3
766,071	53,42
766,261	53,44
766,451	53,46
766,641	53,43
766,832	53,62
767,022	53,59
767,212	53,64
767,402	53,65
767,592	53,91
767,782	53,81
767,972	53,85
768,162	53,87
768,353	53,87
768,543	53,89
768,733	54,01
768,923	54,03
769,113	54,11
769,303	54
769,493	54,21
769,682	54,2
769,872	54,38
770,062	54,35
770,252	54,41
770,442	54,41
770,632	54,47
770,822	54,41
771,012	54,46
771,201	54,43
771,391	54,38
771,581	54,17
771,771	54,3
771,96	54,24
772,15	54,39
772,34	54,42
772,529	54,49
772,719	54,53
772,909	54,48
773,098	54,45
773,288	54,7
773,478	54,62
773,667	54,79
773,857	54,73
774,046	54,82
774,236	54,83
774,425	54,75
774,615	54,61
774,804	54,78
774,994	54,65
775,183	54,78
775,373	54,73
775,562	54,83
775,752	54,72
775,941	54,68
776,13	54,72
776,32	54,87
776,509	54,83
776,698	54,87
776,888	54,83
777,077	54,89
777,266	54,76
777,456	54,9
777,645	54,98
777,834	55,04
778,023	55,15
778,212	55,34
778,402	55,55
778,591	55,47
778,78	55,48
778,969	55,6
779,158	55,31
779,347	55,33
779,536	55,25
779,725	55,31
779,914	55,31
780,103	55,09
780,292	55,16
780,481	55,15
780,67	55,08
780,859	55,41
781,048	55,39
781,237	55,45
781,426	55,27
781,615	55,13
781,804	55,17
781,993	55,29
782,182	55,34
782,37	55,32
782,559	55,12
782,748	55,16
782,937	55,27
783,126	55,24
783,314	55,29
783,503	55,39
783,692	55,21
783,88	55,3
784,069	55,2
784,258	55,33
784,446	55,21
784,635	55,18
784,824	55,12
785,012	54,95
785,201	54,8
785,389	54,8
785,578	54,68
785,766	54,96
785,955	54,79
786,143	54,88
786,332	54,88
786,52	55,03
786,709	55,13
786,897	55,13
787,086	55,21
787,274	55,11
787,462	55,02
787,651	55,1
787,839	55,08
788,027	54,95
788,216	54,94
788,404	54,97
788,592	54,95
788,781	55,1
788,969	55,2
789,157	55,3
789,345	55,35
789,533	55,44
789,722	55,57
789,91	55,78
790,098	55,69
790,286	55,72
790,474	55,65
790,662	55,65
790,85	55,51
791,038	55,52
791,226	55,51
791,414	55,44
791,602	55,43
791,79	55,39
791,978	55,31
792,166	55,4
792,354	55,27
792,542	55,27
792,73	55,26
792,918	55,24
793,106	55,12
793,294	54,95
793,482	54,96
793,669	55,04
793,857	54,69
794,045	54,75
794,233	54,81
794,421	54,92
794,608	54,8
794,796	55,01
794,984	54,93
795,171	55,12
795,359	55,16
795,547	55,36
795,734	55,23
795,922	55,17
796,11	55,08
796,297	55,17
796,485	55,2
796,672	55,39
796,86	55,31
797,047	55,5
797,235	55,31
797,422	55,5
797,61	55,4
797,797	55,45
797,985	55,28
798,172	55,02
798,36	54,99
798,547	55
798,734	54,58
798,922	54,78
799,109	54,76
799,296	54,86
799,484	54,72
799,671	54,87
799,858	55,02
800,046	54,95
800,233	54,75
800,42	54,88
800,607	55,02
800,794	54,97
800,982	55,06
801,169	55,24
801,356	55,23
801,543	55,18
801,73	55,21
801,917	55,49
802,104	55,69
802,291	55,76
802,478	55,91
802,665	55,9
802,852	55,98
803,039	56,14
803,226	56,27
803,413	56,48
803,6	56,42
803,787	56,48
803,974	56,32
804,161	56,33
804,348	56,13
804,535	56,32
804,722	56,29
804,908	56,39
805,095	56,32
805,282	56,43
805,469	56,43
805,655	56,43
805,842	56,39
806,029	56,63
806,216	56,41
806,402	56,53
806,589	56,51
806,776	56,35
806,962	56,3
807,149	56,5
807,335	56,3
807,522	56,36
807,709	56,38
807,895	56,2
808,082	56
808,268	56,05
808,455	55,87
808,641	55,87
808,828	55,42
809,014	55,5
809,201	55,19
809,387	55,12
809,573	55,09
809,76	55,09
809,946	54,98
810,133	55,35
810,319	55,45
810,505	55,34
810,691	55,37
810,878	55,49
811,064	55,28
811,25	55,15
811,436	54,8
811,623	54,63
811,809	54,25
811,995	53,9
812,181	54,13
812,367	54,16
812,554	54,12
812,74	54,4
812,926	54,34
813,112	54,68
813,298	54,57
813,484	54,67
813,67	54,52
813,856	54,44
814,042	54,16
814,228	53,92
814,414	53,34
814,6	53,97
814,786	53,89
814,972	53,66
815,158	53,69
815,344	53,88
815,529	53,75
815,715	53,92
815,901	54,55
816,087	54,78
816,273	54,31
816,458	54,38
816,644	54,83
816,83	54,79
817,016	54,92
817,201	54,95
817,387	55,11
817,573	54,7
817,758	54,79
817,944	55,45
818,13	55,51
818,315	55,55
818,501	55,87
818,686	55,8
818,872	55,89
819,058	55,71
819,243	55,93
819,429	55,91
819,614	55,57
819,8	55,46
819,985	54,99
820,17	54,6
820,356	54,56
820,541	54,12
820,727	54,18
820,912	53,87
821,097	53,96
821,283	54,37
821,468	54,14
821,653	55,01
821,839	55,18
822,024	55,51
822,209	56,29
822,394	56,45
822,58	56,35
822,765	56,36
822,95	56,33
823,135	56,38
823,32	56,49
823,506	56,76
823,691	56,77
823,876	56,72
824,061	56,43
824,246	56,62
824,431	56,44
824,616	56,25
824,801	56,11
824,986	55,99
825,171	55,86
825,356	55,62
825,541	55,28
825,726	55,56
825,911	55,51
826,096	55,39
826,281	55,2
826,465	55,51
826,65	55,33
826,835	55,26
827,02	55,7
827,205	56,12
827,39	55,7
827,574	55,86
827,759	56,24
827,944	56,19
828,128	56,21
828,313	56,65
828,498	57,07
828,683	56,63
828,867	56,26
829,052	56,84
829,236	56,5
829,421	56,47
829,606	56,84
829,79	56,83
829,975	56,8
830,159	56,66
830,344	56,83
830,528	57,02
830,713	56,89
830,897	57,03
831,082	56,69
831,266	56,88
831,45	57,08
831,635	57,05
831,819	56,99
832,004	57,14
832,188	57,18
832,372	57,23
832,557	57,43
832,741	57,44
832,925	57,03
833,109	57,14
833,294	57,06
833,478	57,06
833,662	56,84
833,846	56,88
834,03	56,76
834,215	56,81
834,399	57,02
834,583	57,33
834,767	57,38
834,951	57,22
835,135	57,12
835,319	57,28
835,503	57,3
835,687	57,5
835,871	57,52
836,055	57,42
836,239	57,17
836,423	57,16
836,607	57,19
836,791	57,13
836,975	57,14
837,159	57,2
837,343	57,14
837,526	57,18
837,71	57,29
837,894	57,3
838,078	57,49
838,262	57,69
838,445	57,81
838,629	58,03
838,813	58,1
838,997	57,96
839,18	57,8
839,364	57,87
839,548	58,09
839,731	58,09
839,915	58,05
840,099	57,99
840,282	57,66
840,466	57,64
840,649	57,78
840,833	57,93
841,016	58,02
841,2	58,03
841,383	57,98
841,567	58,09
841,75	58,23
841,934	58,33
842,117	58,14
842,301	58,26
842,484	58,38
842,667	58,28
842,851	58,25
843,034	58,15
843,217	58,19
843,401	58,27
843,584	58,31
843,767	58,59
843,951	58,53
844,134	58,38
844,317	58,49
844,5	58,34
844,683	58,36
844,867	58,21
845,05	57,94
845,233	58,09
845,416	57,77
845,599	58,01
845,782	58,08
845,965	58,05
846,148	58,51
846,331	58,24
846,514	58,11
846,697	58,44
846,88	58,27
847,063	58,42
847,246	58,07
847,429	57,89
847,612	58,02
847,795	57,85
847,978	58,44
848,161	58,85
848,344	58,73
848,526	58,9
848,709	58,93
848,892	58,88
849,075	58,95
849,258	58,47
849,44	58,4
849,623	57,91
849,806	58,21
849,988	58,26
850,171	58,45
850,354	58,57
850,536	58,54
850,719	58,62
850,902	59,11
851,084	59,35
851,267	59,28
851,449	58,69
851,632	58,81
851,814	58,6
851,997	58,57
852,179	58,63
852,362	58,33
852,544	58,41
852,727	57,9
852,909	58,3
853,092	58,29
853,274	58,32
853,456	58,41
853,639	58,33
853,821	58,64
854,003	59,1
854,186	59,27
854,368	59,4
854,55	59,28
854,732	59,45
854,915	59,45
855,097	59,12
855,279	59,04
855,461	58,88
855,643	58,52
855,826	58,43
856,008	58,71
856,19	58,96
856,372	58,86
856,554	58,61
856,736	58,65
856,918	58,7
857,1	58,77
857,282	58,91
857,464	58,62
857,646	58,46
857,828	58,3
858,01	58,34
858,192	58,3
858,374	58,64
858,556	58,93
858,738	58,5
858,919	58,28
859,101	58,39
859,283	58,5
859,465	58,76
859,647	58,49
859,828	59,11
860,01	59,37
860,192	59,53
860,374	59,96
860,555	60,6
860,737	60,4
860,919	60,18
861,1	60,17
861,282	60,63
861,464	60,44
861,645	60,15
861,827	60,25
862,008	60,41
862,19	60,17
862,371	60,57
862,553	60,64
862,734	60,25
862,916	60,11
863,097	59,99
863,279	60,39
863,46	60,18
863,642	59,77
863,823	59,81
864,004	59,58
864,186	59,77
864,367	59,75
864,548	60,06
864,73	60,15
864,911	59,15
865,092	58,87
865,274	59,06
865,455	59,48
865,636	59,68
865,817	59,33
865,998	59,63
866,18	59,5
866,361	59,32
866,542	59,53
866,723	59,79
866,904	59,91
867,085	59,37
867,266	59,21
867,447	59,69
867,628	59,59
867,809	59,51
867,99	59,73
868,171	60,37
868,352	60,52
868,533	60,45
868,714	60,74
868,895	60,85
869,076	60,69
869,257	61,01
869,438	61,05
869,619	60,99
869,799	60,61
869,98	60,27
870,161	60,67
870,342	60,63
870,523	60,89
870,703	61,18
870,884	61,15
871,065	61,42
871,245	61,37
871,426	61,53
871,607	61,74
871,787	61,72
871,968	61,69
872,149	61,52
872,329	61,15
872,51	60,75
872,69	60,74
872,871	60,61
873,051	60,58
873,232	60,6
873,412	60,42
873,593	60,33
873,773	60,53
873,954	60,59
874,134	61,1
874,314	61,17
874,495	61,45
874,675	61,39
874,856	61,08
875,036	61,34
875,216	61,32
875,396	61,34
875,577	61,32
875,757	61,14
875,937	60,85
876,117	60,95
876,298	61,18
876,478	61,46
876,658	61,1
876,838	60,99
877,018	60,92
877,198	61,13
877,379	61,07
877,559	60,77
877,739	60,58
877,919	60,02
878,099	60,23
878,279	60,2
878,459	60,65
878,639	60,62
878,819	60,84
878,999	60,42
879,179	60,83
879,359	60,57
879,538	61,14
879,718	60,9
879,898	61,63
880,078	61,2
880,258	60,93
880,438	60,99
880,617	61,62
880,797	61,4
880,977	61,87
881,157	61,92
881,336	61,83
881,516	60,94
881,696	61,22
881,876	61,13
882,055	61,11
882,235	60,82
882,414	60,87
882,594	60,64
882,774	60,54
882,953	60,63
883,133	61,22
883,312	61,63
883,492	61,66
883,671	60,78
883,851	60,91
884,03	61,41
884,21	61,51
884,389	61,74
884,569	62,19
884,748	61,93
884,927	61,73
885,107	61,77
885,286	62,19
885,465	62,65
885,645	62,38
885,824	62,17
886,003	61,93
886,182	61,71
886,362	61,79
886,541	61,6
886,72	61,67
886,899	62,18
887,078	61,94
887,258	62,06
887,437	62,06
887,616	61,98
887,795	61,85
887,974	62,41
888,153	62,52
888,332	62,69
888,511	62,09
888,69	61,89
888,869	61,42
889,048	61,73
889,227	61,93
889,406	61,89
889,585	61,59
889,764	61,57
889,943	61,77
890,122	62,02
890,301	61,87
890,479	62,7
890,658	62,52
890,837	62,32
891,016	62,86
891,195	63,01
891,373	62,39
891,552	62,69
891,731	63,15
891,909	63,24
892,088	62,69
892,267	63,29
892,446	63,33
892,624	63,31
892,803	63
892,981	63,3
893,16	63,09
893,338	62,73
893,517	63,31
893,696	63,75
893,874	63,43
894,053	63,32
894,231	63,65
894,41	63,86
894,588	64,43
894,766	64,83
894,945	65,82
895,123	65,4
895,302	65,21
895,48	64,96
895,658	65,52
895,837	64,58
896,015	62,92
896,193	62,68
896,371	61,81
896,55	61,78
896,728	63,87
896,906	64,5
897,084	66,94
897,262	67,13
897,441	67,63
897,619	69,74
897,797	70,52
897,975	70,68
898,153	68,58
898,331	66,38
898,509	67,76
898,687	65,36
898,865	65,74
899,043	65,9
899,221	66,43
899,399	67,74
899,577	66,98
899,755	67,21
899,933	69,05
900,111	66,09
900,289	66,46
900,467	67,6
900,645	66,77
900,822	65,35
901	64,34
901,178	65,04
901,356	65,76
901,534	64,4
901,711	63,62
901,889	63,44
902,067	62,78
902,244	63,59
902,422	63,77
902,6	63,34
902,777	62,8
902,955	62,69
903,133	63,17
903,31	63,94
903,488	64,2
903,665	63,96
903,843	63,62
904,02	63,84
904,198	63,99
904,375	65,16
904,553	65,22
904,73	64,85
904,908	65,14
905,085	65,21
905,263	64,76
905,44	64,23
905,617	65,96
905,795	65,67
905,972	67,07
906,149	68,4
906,327	67,66
906,504	69,26
906,681	67,71
906,858	67,83
907,036	67,46
907,213	68,9
907,39	69,64
907,567	66,42
907,744	66,7
907,921	67,44
908,099	65,89
908,276	66,81
908,453	68,6
908,63	71,57
908,807	68,69
908,984	68,73
909,161	69,94
909,338	68,64
909,515	69,95
909,692	70,51
909,869	71,47
910,046	70,9
910,223	69,48
910,4	69,32
910,576	69,95
910,753	70,16
910,93	69,76
911,107	67,75
911,284	69,97
911,461	68,39
911,637	67,52
911,814	65,68
911,991	65,06
912,168	64,01
912,344	63,95
912,521	65,49
912,698	66,2
912,874	64,67
913,051	66,31
913,227	67,38
913,404	67,91
913,581	70,05
913,757	71,43
913,934	73,34
914,11	70,37
914,287	69,98
914,463	68,51
914,64	67,6
914,816	67,15
914,993	67,9
915,169	66,15
915,345	66,82
915,522	65,7
915,698	69
915,875	70,14
916,051	71,82
916,227	74,05
916,403	75,44
916,58	75,92
916,756	76,79
916,932	74,18
917,108	74,6
917,285	73,66
917,461	73,85
917,637	70,59
917,813	70,77
917,989	71,17
918,165	68,6
918,342	68,98
918,518	69,52
918,694	69,69
918,87	69,94
919,046	68,28
919,222	69,74
919,398	68,19
919,574	67,1
919,75	70,66
919,926	70,7
920,102	69,41
920,278	68,8
920,453	68,57
920,629	68,65
920,805	69,72
920,981	69,36
921,157	69,15
921,333	69,03
921,508	68,17
921,684	70,78
921,86	72,95
922,036	73,22
922,211	74,21
922,387	74,5
922,563	76,48
922,739	76,04
922,914	75,94
923,09	75,49
923,265	73,01
923,441	69,71
923,617	69,18
923,792	70,03
923,968	69,21
924,143	69,06
924,319	67,59
924,494	66,12
924,67	65,67
924,845	68,44
925,021	68,74
925,196	68,76
925,371	68,84
925,547	69,26
925,722	68,62
925,897	71,01
926,073	73,14
926,248	77,98
926,423	77,26
926,599	82,12
926,774	79,31
926,949	82,31
927,124	80,06
927,3	84,95
927,475	87,36
927,65	89,37
927,825	86,93
928	90,15
928,175	91,11
928,351	107,02
928,526	105,3
928,701	108,82
928,876	106,69
929,051	114,21
929,226	119,51
929,401	118,54
929,576	117,12
929,751	111,01
929,926	94,04
930,101	101,2
930,276	111,24
930,45	115,16
930,625	100,65
930,8	97,61
930,975	109,98
931,15	154,49
931,325	155,83
931,499	185,34
931,674	178,62
931,849	200,02
932,024	269,49
932,198	367,74
932,373	533,27
932,548	230,56
932,722	152,93
932,897	206,85
933,072	189,22
933,246	253,77
933,421	225,19
933,595	194,88
933,77	208,83
933,945	205,95
934,119	286,47
934,294	300,44
934,468	278,21
934,643	158,24
934,817	135,05
934,991	134,91
935,166	138,36
935,34	153,23
935,515	145,76
935,689	139,72
935,863	144,14
936,038	140,6
936,212	230,1
936,386	202,54
936,561	267,55
936,735	243,86
936,909	166,87
937,083	130,85
937,257	126,19
937,432	123,11
937,606	109,95
937,78	115,87
937,954	109,15
938,128	106,25
938,302	96,12
938,476	96,69
938,65	123,99
938,825	169,32
938,999	140,13
939,173	148,93
939,347	110,16
939,521	110,63
939,694	122,05
939,868	122,23
940,042	128,57
940,216	102,74
940,39	88,38
940,564	126,81
940,738	126,37
940,912	192,12
941,086	340,17
941,259	199,08
941,433	299,47
941,607	243,58
941,781	324,69
941,954	254,83
942,128	140,19
942,302	139,4
942,475	126,33
942,649	99,16
942,823	107,45
942,996	130,25
943,17	158,58
943,344	223,45
943,517	175,91
943,691	194,73
943,864	243,38
944,038	144,71
944,211	90,68
944,385	118,86
944,558	87,07
944,732	81,14
944,905	56,52
945,078	68,69
945,252	63,58
945,425	73,41
945,599	101,14
945,772	99,58
945,945	105,84
946,118	60,08
946,292	45,21
946,465	30,2
946,638	23,65
946,812	23,14
946,985	11,11
947,158	13,38
947,331	40,24
947,504	29,87
947,677	44,33
947,851	76,96
948,024	97,32
948,197	114,61
948,37	129,64
948,543	99,05
948,716	97,96
948,889	88,67
949,062	129,36
949,235	128,52
949,408	124,99
949,581	136,58
949,754	142,55
949,927	153,1
950,1	187,26
950,272	588,09
950,445	-570,59
950,618	836,31
950,791	320,97
950,964	188,79
951,137	222,84
951,309	161,93
951,482	163,58
951,655	179,21
951,828	152,22
952	129,78
952,173	163,89
952,346	216,1
952,518	490,47
952,691	374,82
952,863	619,95
953,036	687,27
953,209	673,84
953,381	-882,43
953,554	-509,09
953,726	2016,91
953,899	443,4
954,071	288,16
954,244	214,36
954,416	289,28
954,589	220,04
954,761	160,02
954,933	136,59
955,106	109,07
955,278	121,6
955,451	126,16
955,623	116,77
955,795	105,92
955,967	88,03
956,14	93,82
956,312	107,17
956,484	110,22
956,656	124,01
956,829	129,95
957,001	109,79
957,173	115
957,345	106,34
957,517	112,79
957,689	127,94
957,861	116,15
958,034	90,89
958,206	79,45
958,378	94,2
958,55	90,79
958,722	89,27
958,894	95,87
959,066	91,96
959,238	105,47
959,41	97,1
959,581	129,05
959,753	150,67
959,925	122,59
960,097	100,05
960,269	94,41
960,441	106,85
960,613	132,76
960,784	114,19
960,956	102,53
961,128	76,27
961,3	76,69
961,471	85,94
961,643	106,45
961,815	109,15
961,986	96,49
962,158	77,43
962,33	75,46
962,501	64,83
962,673	81,54
962,845	73,75
963,016	80,31
963,188	76,08
963,359	83,27
963,531	93,11
963,702	117,82
963,874	135,19
964,045	173,3
964,217	151,1
964,388	127
964,559	106,21
964,731	93,58
964,902	71,97
965,073	60,25
965,245	62,38
965,416	57,44
965,587	63,06
965,759	66,31
965,93	72,82
966,101	73,3
966,272	80,71
966,444	86,12
966,615	88
966,786	88,51
966,957	95,89
967,128	87,89
967,299	90,28
967,47	89,96
967,641	86,39
967,813	87,57
967,984	91,7
968,155	92,36
968,326	87,11
968,497	85,04
968,668	83,67
968,839	81,09
969,009	74,37
969,18	77,91
969,351	74,13
969,522	68,5
969,693	65,42
969,864	58,35
970,035	60,53
970,206	66,62
970,376	65,62
970,547	73,92
970,718	70,14
970,889	66,75
971,059	67,69
971,23	73,81
971,401	81,07
971,571	78,9
971,742	71,22
971,913	68,49
972,083	69,89
972,254	75,97
972,424	79,23
972,595	81,55
972,766	83,03
972,936	80,45
973,107	94,43
973,277	99,88
973,448	95,54
973,618	86,08
973,788	76,53
973,959	69,04
974,129	71,77
974,3	68,21
974,47	69,72
974,64	57,78
974,811	69,56
974,981	76,06
975,151	79,1
975,322	79,75
975,492	97,2
975,662	101,22
975,832	105,67
976,002	108,2
976,173	108,93
976,343	102,56
976,513	96,16
976,683	94,2
976,853	95,23
977,023	88,01
977,193	79,81
977,363	74,39
977,533	79,93
977,704	79,99
977,874	80,65
978,044	86,22
978,213	83,45
978,383	90,27
978,553	93,63
978,723	86,78
978,893	83,62
979,063	76,58
979,233	70,69
979,403	69,96
979,573	69,39
979,742	72,54
979,912	75,79
980,082	71,61
980,252	70,9
980,421	71,4
980,591	68,55
980,761	68
980,931	66,68
981,1	65,77
981,27	64,8
981,439	63,87
981,609	68,81
981,779	77,82
981,948	81,14
982,118	80,84
982,287	90,07
982,457	93,93
982,626	93,27
982,796	96,24
982,965	97,8
983,135	89,19
983,304	86,65
983,474	80,97
983,643	86,78
983,812	79,53
983,982	75,84
984,151	75,3
984,32	78,41
984,49	71,39
984,659	74,22
984,828	72,6
984,998	83,33
985,167	69,71
985,336	69,9
985,505	78,22
985,674	80,5
985,844	70,37
986,013	77,85
986,182	74,61
986,351	69,64
986,52	66,04
986,689	75,46
986,858	76,57
987,027	73,81
987,196	78,54
987,365	83,91
987,534	81,11
987,703	83,52
987,872	85,69
988,041	84,71
988,21	84,47
988,379	84,4
988,548	88,99
988,717	79,98
988,885	87,27
989,054	94,58
989,223	96,35
989,392	96,05
989,561	95,35
989,729	88,11
989,898	85,61
990,067	77,22
990,235	79,33
990,404	70,35
990,573	65,98
990,741	69,47
990,91	69,47
991,079	62,08
991,247	65,77
991,416	73,81
991,584	80,18
991,753	82,97
991,921	83,78
992,09	77,55
992,258	75,23
992,427	76,74
992,595	85,87
992,764	88,97
992,932	89,16
993,1	95,52
993,269	96,29
993,437	103,94
993,605	103,99
993,774	96,71
993,942	100,07
994,11	103,43
994,279	108,2
994,447	98,08
994,615	89,78
994,783	89,78
994,951	85
995,12	88,16
995,288	101,68
995,456	105,22
995,624	102,55
995,792	96,94
995,96	100,45
996,128	104,33
996,296	102,95
996,464	106,8
996,632	105,47
996,8	94,51
996,968	87,05
997,136	86,5
997,304	90,31
997,472	93,15
997,64	90,86
997,808	92,67
997,976	85,67
998,144	90,07
998,311	108,16
998,479	101,06
998,647	100,06
998,815	92,38
998,983	82,05
999,15	83,23
999,318	84,91
999,486	90,51
999,653	79,13
999,821	69,11
999,989	72,61
1000,156	73,62
1000,324	76,96
1000,492	86,6
1000,659	85,84
1000,827	78,37
1000,994	77,7
1001,162	81,08
1001,329	88,16
1001,497	103,17
1001,664	108,11
1001,832	105,76
1001,999	110,62
1002,166	104,83
1002,334	109,85
1002,501	113,13
1002,669	119,22
1002,836	113,06
1003,003	104,6
1003,171	101,96
1003,338	89,56
1003,505	80,23
1003,672	81,01
1003,84	92,4
1004,007	90,96
1004,174	89
1004,341	88,27
1004,508	88,86
1004,675	79,58
1004,843	89,58
1005,01	90,68
1005,177	89,53
1005,344	81,26
1005,511	92,72
1005,678	95,23
1005,845	100,69
1006,012	99,49
1006,179	114,03
1006,346	113,06
1006,513	118,65
1006,68	127,17
1006,847	123,2
1007,013	110,63
1007,18	113,51
1007,347	110,91
1007,514	104,12
1007,681	107,55
1007,848	99,87
1008,014	92,91
1008,181	102,98
1008,348	119,37
1008,515	118,22
1008,681	121,98
1008,848	133,1
1009,015	166,76
1009,181	171,61
1009,348	193,02
1009,515	179,51
1009,681	132,42
1009,848	111,82
1010,014	104,57
1010,181	107,77
1010,347	105,82
1010,514	105,18
1010,68	103,67
1010,847	112,69
1011,013	123,5
1011,18	148,92
1011,346	168,3
1011,513	159
1011,679	176,77
1011,845	154,58
1012,012	142,55
1012,178	138,7
1012,344	140,8
1012,511	116,46
1012,677	113,84
1012,843	129,57
1013,009	142,54
1013,175	112,77
1013,342	123,17
1013,508	107,53
1013,674	113,65
1013,84	90,89
1014,006	96,66
1014,172	93,01
1014,338	78,99
1014,505	76,09
1014,671	79,45
1014,837	85,83
1015,003	81,21
1015,169	82,93
1015,335	97,34
1015,501	88,43
1015,666	85,15
1015,832	96,88
1015,998	95,69
1016,164	97,25
1016,33	91,3
1016,496	101,32
1016,662	107,18
1016,828	113,09
1016,993	125,85
1017,159	125,24
1017,325	105,9
1017,491	110,13
1017,656	108,84
1017,822	117,83
1017,988	125,31
1018,153	111,79
1018,319	101,15
1018,485	111,18
1018,65	117,69
1018,816	140,17
1018,981	131,17
1019,147	148,59
1019,313	136,74
1019,478	115,02
1019,644	115,45
1019,809	124,4
1019,975	92,92
1020,14	107,16
1020,305	87,32
1020,471	184,51
1020,636	171,43
1020,802	247,84
1020,967	321,41
1021,132	344,99
1021,298	379,64
1021,463	519,41
1021,628	601,35
1021,793	705,51
1021,959	386,89
1022,124	176,91
1022,289	110,48
1022,454	91,61
1022,619	84,16
1022,785	88,48
1022,95	92,89
1023,115	100,12
1023,28	95,07
1023,445	93,06
1023,61	100,6
1023,775	100,41
1023,94	118,38
1024,105	118,49
1024,27	123,93
1024,435	131,53
1024,6	120,55
1024,765	148,86
1024,93	133,39
1025,095	154,77
1025,26	180,53
1025,425	150,35
1025,589	157,58
1025,754	139,89
1025,919	144,97
1026,084	213,69
1026,249	165,58
1026,413	398,86
1026,578	330,97
1026,743	313,34
1026,908	220,35
1027,072	278,9
1027,237	358,33
1027,402	313,23
1027,566	293,34
1027,731	219,08
1027,895	154,09
1028,06	147,38
1028,225	144,02
1028,389	209,63
1028,554	174,36
1028,718	166,48
1028,883	155,95
1029,047	160,94
1029,211	164,55
1029,376	140,65
1029,54	123,23
1029,705	104,9
1029,869	107,57
1030,033	129,1
1030,198	122,23
1030,362	111,07
1030,526	102,99
1030,691	111,99
1030,855	124,7
1031,019	148,11
1031,183	226,7
1031,348	177,12
1031,512	142,83
1031,676	180,55
1031,84	386,72
1032,004	321,54
1032,168	377,54
1032,332	322,57
1032,496	192,78
1032,661	161,03
1032,825	148,12
1032,989	157,83
1033,153	146,56
1033,317	120,66
1033,481	138,27
1033,644	138,36
1033,808	124,46
1033,972	165,01
1034,136	144,33
1034,3	212,64
1034,464	415,87
1034,628	2294,5
1034,792	-5329,89
1034,955	265,17
1035,119	218,34
1035,283	258,41
1035,447	187
1035,61	224,31
1035,774	273,52
1035,938	188,37
1036,102	155,24
1036,265	126,77
1036,429	165,63
1036,592	155,87
1036,756	150,49
1036,92	161,95
1037,083	613,79
1037,247	168,64
1037,41	129,69
1037,574	-7470,37
1037,737	1833,51
1037,901	369,06
1038,064	251,65
1038,228	223,05
1038,391	168,88
1038,554	131,96
1038,718	113,75
1038,881	119,96
1039,044	114,96
1039,208	126,15
1039,371	112,16
1039,534	111,47
1039,698	98,32
1039,861	132,93
1040,024	204,53
1040,187	357,92
1040,351	400
1040,514	289,63
1040,677	259,48
1040,84	279,48
1041,003	213,42
1041,166	208,91
1041,329	171,03
1041,492	147,69
1041,655	128,42
1041,818	112,61
1041,981	90,92
1042,144	111,5
1042,307	110,5
1042,47	120,15
1042,633	131,41
1042,796	136,73
1042,959	119,67
1043,122	127,01
1043,285	84,6
1043,448	123,07
1043,611	96,18
1043,773	89,92
1043,936	82,73
1044,099	66,98
1044,262	93,25
1044,424	74,48
1044,587	74,97
1044,75	92,95
1044,913	77,51
1045,075	84,87
1045,238	104,41
1045,4	138,24
1045,563	164,73
1045,726	156,2
1045,888	241,25
1046,051	256,48
1046,213	-452,02
1046,376	-708,07
1046,538	-9,76
1046,701	-96,66
1046,863	1,26
1047,026	-857,29
1047,188	-172,62
1047,351	-162,68
1047,513	-413,13
1047,675	485,27
1047,838	2851,22
1048	280,26
1048,162	147,66
1048,325	167,21
1048,487	121,59
1048,649	92,15
1048,811	74,46
1048,974	123,39
1049,136	172,17
